#The following results were obtained by SHC method with NEP3 potential.  
#frequency(THz)  kappa(omega) (W/m/K/THz)
0.127324    0.000443
0.254648    0.000886
0.381972    0.004512
0.509296    0.009793
0.636620    0.016551
0.763944    0.025376
0.891268    0.037513
1.018592    0.051499
1.145916    0.066366
1.273240    0.081021
1.400563    0.094453
1.527887    0.105978
1.655211    0.115383
1.782535    0.122948
1.909859    0.129310
2.037183    0.135223
2.164507    0.141281
2.291831    0.147699
2.419155    0.154234
2.546479    0.160259
2.673803    0.164984
2.801127    0.167740
2.928451    0.168222
3.055775    0.166624
3.183099    0.163606
3.310423    0.160119
3.437747    0.157125
3.565071    0.155329
3.692395    0.154978
3.819719    0.155809
3.947043    0.157137
4.074367    0.158060
4.201690    0.157712
4.329014    0.155489
4.456338    0.151190
4.583662    0.145041
4.710986    0.137604
4.838310    0.129616
4.965634    0.121800
5.092958    0.114710
5.220282    0.108641
5.347606    0.103620
5.474930    0.099473
5.602254    0.095930
5.729578    0.092732
5.856902    0.089715
5.984226    0.086832
6.111550    0.084146
6.238874    0.081774
6.366198    0.079832
6.493522    0.078394
6.620846    0.077465
6.748170    0.076996
6.875494    0.076891
7.002817    0.077030
7.130141    0.077276
7.257465    0.077484
7.384789    0.077495
7.512113    0.077159
7.639437    0.076355
7.766761    0.075024
7.894085    0.073201
8.021409    0.071014
8.148733    0.068669
8.276057    0.066392
8.403381    0.064376
8.530705    0.062723
8.658029    0.061429
8.785353    0.060404
8.912677    0.059527
9.040001    0.058706
9.167325    0.057936
9.294649    0.057309
9.421973    0.056997
9.549297    0.057194
9.676621    0.058051
9.803944    0.059622
9.931268    0.061841
10.058592    0.064537
10.185916    0.067468
10.313240    0.070380
10.440564    0.073053
10.567888    0.075336
10.695212    0.077160
10.822536    0.078530
10.949860    0.079504
11.077184    0.080161
11.204508    0.080572
11.331832    0.080779
11.459156    0.080775
11.586480    0.080512
11.713804    0.079919
11.841128    0.078940
11.968452    0.077570
12.095776    0.075887
12.223100    0.074060
12.350424    0.072319
12.477748    0.070910
12.605071    0.070024
12.732395    0.069750
12.859719    0.070042
12.987043    0.070743
13.114367    0.071637
13.241691    0.072518
13.369015    0.073251
13.496339    0.073797
13.623663    0.074200
13.750987    0.074534
13.878311    0.074842
14.005635    0.075095
14.132959    0.075185
14.260283    0.074967
14.387607    0.074331
14.514931    0.073274
14.642255    0.071944
14.769579    0.070631
14.896903    0.069700
15.024227    0.069487
15.151551    0.070192
15.278875    0.071798
15.406198    0.074057
15.533522    0.076536
15.660846    0.078728
15.788170    0.080186
15.915494    0.080635
16.042818    0.080047
16.170142    0.078640
16.297466    0.076803
16.424790    0.074980
16.552114    0.073539
16.679438    0.072670
16.806762    0.072342
16.934086    0.072337
17.061410    0.072347
17.188734    0.072100
17.316058    0.071479
17.443382    0.070592
17.570706    0.069757
17.698030    0.069417
17.825354    0.070001
17.952678    0.071771
18.080002    0.074722
18.207325    0.078549
18.334649    0.082705
18.461973    0.086535
18.589297    0.089442
18.716621    0.091031
18.843945    0.091195
18.971269    0.090120
19.098593    0.088205
19.225917    0.085942
19.353241    0.083777
19.480565    0.082008
19.607889    0.080741
19.735213    0.079893
19.862537    0.079259
19.989861    0.078591
20.117185    0.077680
20.244509    0.076410
20.371833    0.074789
20.499157    0.072946
20.626481    0.071104
20.753805    0.069540
20.881129    0.068530
21.008452    0.068298
21.135776    0.068962
21.263100    0.070506
21.390424    0.072762
21.517748    0.075434
21.645072    0.078151
21.772396    0.080541
21.899720    0.082312
22.027044    0.083316
22.154368    0.083574
22.281692    0.083263
22.409016    0.082651
22.536340    0.082024
22.663664    0.081601
22.790988    0.081484
22.918312    0.081640
23.045636    0.081932
23.172960    0.082161
23.300284    0.082129
23.427608    0.081677
23.554932    0.080705
23.682256    0.079167
23.809579    0.077051
23.936903    0.074364
24.064227    0.071129
24.191551    0.067406
24.318875    0.063324
24.446199    0.059104
24.573523    0.055073
24.700847    0.051629
24.828171    0.049181
24.955495    0.048059
25.082819    0.048419
25.210143    0.050189
25.337467    0.053054
25.464791    0.056511
25.592115    0.059974
25.719439    0.062905
25.846763    0.064942
25.974087    0.065973
26.101411    0.066143
26.228735    0.065792
26.356059    0.065339
26.483383    0.065149
26.610706    0.065426
26.738030    0.066165
26.865354    0.067174
26.992678    0.068150
27.120002    0.068790
27.247326    0.068888
27.374650    0.068382
27.501974    0.067358
27.629298    0.065986
27.756622    0.064442
27.883946    0.062832
28.011270    0.061156
28.138594    0.059313
28.265918    0.057159
28.393242    0.054574
28.520566    0.051536
28.647890    0.048147
28.775214    0.044630
28.902538    0.041288
29.029862    0.038430
29.157186    0.036312
29.284510    0.035086
29.411833    0.034772
29.539157    0.035270
29.666481    0.036378
29.793805    0.037827
29.921129    0.039325
30.048453    0.040592
30.175777    0.041397
30.303101    0.041590
30.430425    0.041118
30.557749    0.040041
30.685073    0.038513
30.812397    0.036760
30.939721    0.035033
31.067045    0.033566
31.194369    0.032530
31.321693    0.032009
31.449017    0.031994
31.576341    0.032394
31.703665    0.033062
31.830989    0.033824
31.958313    0.034510
32.085637    0.034975
32.212960    0.035118
32.340284    0.034888
32.467608    0.034420
32.594932    0.033594
32.722256    0.032414
32.849580    0.031032
32.976904    0.029817
33.104228    0.028694
33.231552    0.027701
33.358876    0.026827
33.486200    0.026022
33.613524    0.025229
33.740848    0.024486
33.868172    0.023784
33.995496    0.022903
34.122820    0.021854
34.250144    0.021084
34.377468    0.020534
34.504792    0.020174
34.632116    0.020234
34.759440    0.020325
34.886764    0.020347
35.014087    0.020217
35.141411    0.019873
35.268735    0.019272
35.396059    0.018692
35.523383    0.017912
35.650707    0.016894
35.778031    0.015646
35.905355    0.014211
36.032679    0.012667
36.160003    0.011129
36.287327    0.010463
36.414651    0.010193
36.541975    0.010153
36.669299    0.010198
36.796623    0.010358
36.923947    0.010210
37.051271    0.009961
37.178595    0.009623
37.305919    0.009190
37.433243    0.008922
37.560567    0.008690
37.687891    0.008488
37.815214    0.007967
37.942538    0.007169
38.069862    0.006215
38.197186    0.005359
38.324510    0.004495
38.451834    0.003782
38.579158    0.003795
38.706482    0.004417
38.833806    0.004992
38.961130    0.005501
39.088454    0.005714
39.215778    0.005617
39.343102    0.005407
39.470426    0.005118
39.597750    0.004805
39.725074    0.004467
39.852398    0.004265
39.979722    0.004408
40.107046    0.004596
40.234370    0.004753
40.361694    0.004814
40.489018    0.004736
40.616341    0.004505
40.743665    0.004141
40.870989    0.003827
40.998313    0.003560
41.125637    0.003288
41.252961    0.002992
41.380285    0.002686
41.507609    0.002301
41.634933    0.001994
41.762257    0.001926
41.889581    0.002059
42.016905    0.002229
42.144229    0.002351
42.271553    0.002343
42.398877    0.002199
42.526201    0.001988
42.653525    0.001861
42.780849    0.002075
42.908173    0.002420
43.035497    0.002630
43.162821    0.002700
43.290145    0.002543
43.417468    0.002279
43.544792    0.001931
43.672116    0.001591
43.799440    0.001439
43.926764    0.001307
44.054088    0.001196
44.181412    0.001142
44.308736    0.001243
44.436060    0.001321
44.563384    0.001357
44.690708    0.001419
44.818032    0.001422
44.945356    0.001368
45.072680    0.001279
45.200004    0.001212
45.327328    0.001140
45.454652    0.001090
45.581976    0.001075
45.709300    0.001081
45.836624    0.001097
45.963948    0.001109
46.091272    0.001107
46.218595    0.001079
46.345919    0.001023
46.473243    0.000953
46.600567    0.000864
46.727891    0.000774
46.855215    0.000694
46.982539    0.000642
47.109863    0.000632
47.237187    0.000631
47.364511    0.000588
47.491835    0.000540
47.619159    0.000506
47.746483    0.000467
47.873807    0.000423
48.001131    0.000402
48.128455    0.000374
48.255779    0.000343
48.383103    0.000315
48.510427    0.000299
48.637751    0.000286
48.765075    0.000285
48.892399    0.000294
49.019722    0.000292
49.147046    0.000292
49.274370    0.000324
49.401694    0.000369
49.529018    0.000418
49.656342    0.000467
49.783666    0.000507
49.910990    0.000534
50.038314    0.000544
50.165638    0.000537
50.292962    0.000503
50.420286    0.000467
50.547610    0.000425
50.674934    0.000382
50.802258    0.000343
50.929582    0.000310
51.056906    0.000280
51.184230    0.000254
51.311554    0.000236
51.438878    0.000224
51.566202    0.000209
51.693526    0.000189
51.820849    0.000167
51.948173    0.000157
52.075497    0.000143
52.202821    0.000122
52.330145    0.000102
52.457469    0.000089
52.584793    0.000083
52.712117    0.000076
52.839441    0.000066
52.966765    0.000054
53.094089    0.000044
53.221413    0.000036
53.348737    0.000032
53.476061    0.000028
53.603385    0.000024
53.730709    0.000020
53.858033    0.000031
53.985357    0.000041
54.112681    0.000054
54.240005    0.000066
54.367329    0.000076
54.494653    0.000080
54.621976    0.000081
54.749300    0.000085
54.876624    0.000091
55.003948    0.000094
55.131272    0.000095
55.258596    0.000094
55.385920    0.000087
55.513244    0.000076
55.640568    0.000066
55.767892    0.000061
55.895216    0.000057
56.022540    0.000052
56.149864    0.000046
56.277188    0.000042
56.404512    0.000037
56.531836    0.000032
56.659160    0.000027
56.786484    0.000024
56.913808    0.000026
57.041132    0.000029
57.168456    0.000031
57.295780    0.000031
57.423103    0.000031
57.550427    0.000031
57.677751    0.000033
57.805075    0.000036
57.932399    0.000042
58.059723    0.000047
58.187047    0.000049
58.314371    0.000051
58.441695    0.000055
58.569019    0.000060
58.696343    0.000065
58.823667    0.000074
58.950991    0.000080
59.078315    0.000083
59.205639    0.000083
59.332963    0.000082
59.460287    0.000078
59.587611    0.000074
59.714935    0.000069
59.842259    0.000065
59.969583    0.000063
60.096907    0.000061
60.224230    0.000060
60.351554    0.000058
60.478878    0.000054
60.606202    0.000048
60.733526    0.000040
60.860850    0.000032
60.988174    0.000023
61.115498    0.000018
61.242822    0.000014
61.370146    0.000011
61.497470    0.000009
61.624794    0.000010
61.752118    0.000015
61.879442    0.000021
62.006766    0.000026
62.134090    0.000029
62.261414    0.000030
62.388738    0.000029
62.516062    0.000027
62.643386    0.000026
62.770710    0.000025
62.898034    0.000023
63.025357    0.000020
63.152681    0.000017
63.280005    0.000014
63.407329    0.000012
63.534653    0.000012
63.661977    0.000012
