#Temperature(THz) Heat_Capacity(kB/atom)
10.000000    0.000078
110.000000    0.130186
210.000000    0.557350
310.000000    1.058922
410.000000    1.497432
510.000000    1.836850
610.000000    2.088521
710.000000    2.273882
810.000000    2.411615
910.000000    2.515492
1010.000000    2.595145
1110.000000    2.657239
1210.000000    2.706403
1310.000000    2.745890
1410.000000    2.778022
1510.000000    2.804482
1610.000000    2.826505
1710.000000    2.845016
1810.000000    2.860714
1910.000000    2.874133
2010.000000    2.885689
2110.000000    2.895709
2210.000000    2.904451
2310.000000    2.912121
2410.000000    2.918886
2510.000000    2.924882
2610.000000    2.930221
2710.000000    2.934994
2810.000000    2.939279
2910.000000    2.943140
3010.000000    2.946630
3110.000000    2.949795
3210.000000    2.952674
3310.000000    2.955301
3410.000000    2.957704
3510.000000    2.959907
3610.000000    2.961933
3710.000000    2.963799
3810.000000    2.965522
3910.000000    2.967116
4010.000000    2.968593
4110.000000    2.969965
4210.000000    2.971242
4310.000000    2.972432
4410.000000    2.973542
4510.000000    2.974581
4610.000000    2.975552
4710.000000    2.976464
4810.000000    2.977319
4910.000000    2.978123
